time psi theta phi
   0.0000000e+00   0.0000000e+00   0.0000000e+00   0.0000000e+00
   2.5000000e-01   2.2857734e-05   1.9047137e-05   3.5597376e-05
   5.0000000e-01   1.7992779e-04   1.4993912e-04   2.8122497e-04
   7.5000000e-01   5.9736785e-04   4.9779945e-04   9.3714820e-04
   1.0000000e+00   1.3925522e-03   1.1604151e-03   2.1929821e-03
   1.2500000e+00   2.6740776e-03   2.2282294e-03   4.2276953e-03
   1.5000000e+00   4.5417741e-03   3.7843291e-03   7.2096161e-03
   1.7500000e+00   7.0867216e-03   5.9044246e-03   1.1296443e-02
   2.0000000e+00   1.0391258e-02   8.6568393e-03   1.6635250e-02
   2.0836975e+00   1.1680357e-02   9.7304139e-03   1.8726404e-02
   2.1673951e+00   1.3065459e-02   1.0883853e-02   2.0978122e-02
   2.2510926e+00   1.4548999e-02   1.2119163e-02   2.3395126e-02
   2.3347901e+00   1.6133302e-02   1.3438260e-02   2.5982003e-02
   2.4184877e+00   1.7820584e-02   1.4842963e-02   2.8743209e-02
   2.5021852e+00   1.9612949e-02   1.6335000e-02   3.1683066e-02
   2.5858828e+00   2.1512395e-02   1.7916006e-02   3.4805760e-02
   2.6695803e+00   2.3520810e-02   1.9587520e-02   3.8115348e-02
   2.7173058e+00   2.4715504e-02   2.0581718e-02   4.0087698e-02
   2.7650312e+00   2.5946523e-02   2.1606071e-02   4.2122801e-02
   2.8127567e+00   2.7214168e-02   2.2660825e-02   4.4221351e-02
   2.8604822e+00   2.8518730e-02   2.3746213e-02   4.6384026e-02
   2.8937307e+00   2.9449535e-02   2.4520587e-02   4.7928931e-02
   2.9269792e+00   3.0398485e-02   2.5310012e-02   4.9505504e-02
   2.9602277e+00   3.1365666e-02   2.6114559e-02   5.1113961e-02
   2.9934762e+00   3.2351166e-02   2.6934296e-02   5.2754517e-02
   3.0267248e+00   3.3355300e-02   2.7769484e-02   5.4428130e-02
   3.0599733e+00   3.4380316e-02   2.8621990e-02   5.6141921e-02
   3.0932218e+00   3.5429195e-02   2.9494288e-02   5.7905319e-02
   3.1264703e+00   3.6504911e-02   3.0388849e-02   5.9727707e-02
   3.1875178e+00   3.8559748e-02   3.2097479e-02   6.3258239e-02
   3.2485653e+00   4.0733084e-02   3.3904409e-02   6.7075252e-02
   3.3096129e+00   4.3042674e-02   3.5824349e-02   7.1233713e-02
   3.3706604e+00   4.5505970e-02   3.7871748e-02   7.5787202e-02
   3.6097708e+00   5.6955859e-02   4.7383728e-02   9.8397927e-02
   3.8488811e+00   7.2007512e-02   5.9876134e-02   1.3077495e-01
   4.0879915e+00   9.1577760e-02   7.6096543e-02   1.7552291e-01
   4.3271019e+00   1.1651502e-01   9.6726603e-02   2.3492051e-01
   4.5252078e+00   1.4180088e-01   1.1760016e-01   2.9663366e-01
   4.7233138e+00   1.7171794e-01   1.4223733e-01   3.7069112e-01
   4.9214197e+00   2.0664562e-01   1.7091839e-01   4.5788183e-01
   5.1195257e+00   2.4693315e-01   2.0388992e-01   5.5884199e-01
   5.3093816e+00   2.9086826e-01   2.3971169e-01   6.6896791e-01
   5.4992375e+00   3.4027488e-01   2.7982698e-01   7.9247967e-01
   5.6890934e+00   3.9538337e-01   3.2436412e-01   9.2954305e-01
   5.8789493e+00   4.5639898e-01   3.7342226e-01   1.0801954e+00
   6.0655387e+00   5.2229487e-01   4.2610937e-01   1.2414083e+00
   6.2521281e+00   5.9421731e-01   4.8327028e-01   1.4154516e+00
   6.4387176e+00   6.7228894e-01   5.4491787e-01   1.6019982e+00
   6.6253070e+00   7.5660778e-01   6.1103893e-01   1.8006010e+00
   6.8103414e+00   8.4646514e-01   6.8098848e-01   2.0088963e+00
   6.9953758e+00   9.4258395e-01   7.5523700e-01   2.2278205e+00
   7.1804103e+00   1.0449844e+00   8.3369957e-01   2.4565873e+00
   7.3654447e+00   1.1536604e+00   9.1626911e-01   2.6942941e+00
   7.4150474e+00   1.1838564e+00   9.3908575e-01   2.7594080e+00
   7.4646501e+00   1.2145002e+00   9.6218566e-01   2.8250707e+00
   7.5142528e+00   1.2455907e+00   9.8556605e-01   2.8912605e+00
   7.5638555e+00   1.2771265e+00   1.0092240e+00   2.9579551e+00
   7.6134581e+00   1.3091061e+00   1.0331564e+00   3.0251316e+00
   7.6630608e+00   1.3415282e+00   1.0573602e+00   3.0927665e+00
   7.7126635e+00   1.3743908e+00   1.0818323e+00   3.1608357e+00
   7.7622662e+00   1.4076921e+00   1.1065692e+00   3.2293146e+00
   7.8224280e+00   1.4486683e+00   1.1369225e+00   3.3128840e+00
   7.8825898e+00   1.4902828e+00   1.1676542e+00   3.3969724e+00
   7.9427516e+00   1.5325315e+00   1.1987579e+00   3.4815320e+00
   8.0029133e+00   1.5754098e+00   1.2302270e+00   3.5665138e+00
   8.0630751e+00   1.6189125e+00   1.2620546e+00   3.6518772e+00
   8.1232369e+00   1.6630344e+00   1.2942339e+00   3.7376146e+00
   8.1833987e+00   1.7077700e+00   1.3267577e+00   3.8237254e+00
   8.2435605e+00   1.7531131e+00   1.3596184e+00   3.9102092e+00
   8.4781372e+00   1.9355907e+00   1.4908198e+00   4.2509699e+00
   8.7127139e+00   2.1267826e+00   1.6265472e+00   4.5973585e+00
   8.9472906e+00   2.3261892e+00   1.7662776e+00   4.9493351e+00
   9.1818673e+00   2.5332316e+00   1.9094463e+00   5.3068527e+00
   9.2533204e+00   2.5977164e+00   1.9536477e+00   5.4168469e+00
   9.3247735e+00   2.6628290e+00   1.9980944e+00   5.5273484e+00
   9.3962266e+00   2.7285485e+00   2.0427683e+00   5.6383555e+00
   9.4676797e+00   2.7948532e+00   2.0876508e+00   5.7498660e+00
   9.5391328e+00   2.8617210e+00   2.1327233e+00   5.8618780e+00
   9.6105859e+00   2.9291288e+00   2.1779667e+00   5.9743894e+00
   9.6820390e+00   2.9970528e+00   2.2233616e+00   6.0873979e+00
   9.7534921e+00   3.0654686e+00   2.2688885e+00   6.2009012e+00
   9.7958110e+00   3.1062103e+00   2.2959065e+00   6.2683571e+00
   9.8381300e+00   3.1471103e+00   2.3229596e+00   6.3359852e+00
   9.8804489e+00   3.1881632e+00   2.3500436e+00   6.4037849e+00
   9.9227679e+00   3.2293633e+00   2.3771543e+00   6.4717556e+00
   9.9650868e+00   3.2707053e+00   2.4042875e+00   6.5398968e+00
   1.0007406e+01   3.3121831e+00   2.4314388e+00   6.6082079e+00
   1.0049725e+01   3.3537928e+00   2.4586049e+00   6.6766883e+00
   1.0092044e+01   3.3955333e+00   2.4857847e+00   6.7453376e+00
   1.0131019e+01   3.4340925e+00   2.5108293e+00   6.8087129e+00
   1.0169995e+01   3.4727630e+00   2.5358850e+00   6.8722308e+00
   1.0208971e+01   3.5115449e+00   2.5609512e+00   6.9358912e+00
   1.0247947e+01   3.5504380e+00   2.5860276e+00   6.9996937e+00
   1.0442826e+01   3.7465729e+00   2.7115481e+00   7.3208275e+00
   1.0637705e+01   3.9454898e+00   2.8372623e+00   7.6454698e+00
   1.0832584e+01   4.1471868e+00   2.9631186e+00   7.9735832e+00
   1.1027463e+01   4.3516606e+00   3.0890649e+00   8.3051294e+00
   1.1446011e+01   4.8001773e+00   3.3596190e+00   9.0286213e+00
   1.1864558e+01   5.2614104e+00   3.6298089e+00   9.7673710e+00
   1.2283105e+01   5.7352581e+00   3.8990898e+00   1.0520965e+01
   1.2701653e+01   6.2215843e+00   4.1669073e+00   1.1288973e+01
   1.3104729e+01   6.7015704e+00   4.4229174e+00   1.2041797e+01
   1.3507805e+01   7.1927866e+00   4.6765424e+00   1.2807152e+01
   1.3910882e+01   7.6950154e+00   4.9272736e+00   1.3584600e+01
   1.4313958e+01   8.2080057e+00   5.1746024e+00   1.4373684e+01
   1.4694837e+01   8.7023777e+00   5.4047264e+00   1.5129575e+01
   1.5075716e+01   9.2058341e+00   5.6309338e+00   1.5895008e+01
   1.5456595e+01   9.7180764e+00   5.8528050e+00   1.6669544e+01
   1.5837474e+01   1.0238777e+01   6.0699267e+00   1.7452728e+01
   1.6203591e+01   1.0746937e+01   6.2737794e+00   1.8213267e+01
   1.6569708e+01   1.1262238e+01   6.4725180e+00   1.8980919e+01
   1.6935826e+01   1.1784311e+01   6.6658022e+00   1.9755227e+01
   1.7301943e+01   1.2312761e+01   6.8533034e+00   2.0535721e+01
   1.7658352e+01   1.2832924e+01   7.0299770e+00   2.1300994e+01
   1.8014762e+01   1.3358319e+01   7.2005930e+00   2.2071199e+01
   1.8371171e+01   1.3888510e+01   7.3648883e+00   2.2845852e+01
   1.8727581e+01   1.4423041e+01   7.5226160e+00   2.3624457e+01
   1.8864179e+01   1.4628955e+01   7.5812770e+00   2.3923806e+01
   1.9000777e+01   1.4835409e+01   7.6389270e+00   2.4223631e+01
   1.9137375e+01   1.5042373e+01   7.6955543e+00   2.4523902e+01
   1.9273973e+01   1.5249818e+01   7.7511474e+00   2.4824589e+01
   1.9410570e+01   1.5457716e+01   7.8056953e+00   2.5125662e+01
   1.9547168e+01   1.5666037e+01   7.8591876e+00   2.5427089e+01
   1.9683766e+01   1.5874750e+01   7.9116140e+00   2.5728841e+01
   1.9820364e+01   1.6083824e+01   7.9629651e+00   2.6030886e+01
   1.9918417e+01   1.6234108e+01   7.9991578e+00   2.6247862e+01
   2.0016470e+01   1.6384550e+01   8.0347884e+00   2.6464962e+01
   2.0114523e+01   1.6535142e+01   8.0698544e+00   2.6682175e+01
   2.0212575e+01   1.6685879e+01   8.1043547e+00   2.6899499e+01
   2.0310628e+01   1.6836760e+01   8.1382886e+00   2.7116933e+01
   2.0408681e+01   1.6987783e+01   8.1716553e+00   2.7334474e+01
   2.0506734e+01   1.7138946e+01   8.2044541e+00   2.7552122e+01
   2.0604787e+01   1.7290246e+01   8.2366842e+00   2.7769874e+01
   2.1032248e+01   1.7951383e+01   8.3705296e+00   2.8720344e+01
   2.1459709e+01   1.8614894e+01   8.4934949e+00   2.9672627e+01
   2.1887171e+01   1.9280585e+01   8.6055260e+00   3.0626581e+01
   2.2314632e+01   1.9948258e+01   8.7065738e+00   3.1582056e+01
   2.2741468e+01   2.0616734e+01   8.7964697e+00   3.2537503e+01
   2.3168304e+01   2.1286787e+01   8.8753298e+00   3.3494165e+01
   2.3595140e+01   2.1958215e+01   8.9431189e+00   3.4451887e+01
   2.4021976e+01   2.2630810e+01   8.9998067e+00   3.5410511e+01
   2.4124290e+01   2.2792184e+01   9.0117426e+00   3.5640413e+01
   2.4226604e+01   2.2953611e+01   9.0230389e+00   3.5870356e+01
   2.4328918e+01   2.3115087e+01   9.0336952e+00   3.6100337e+01
   2.4431233e+01   2.3276609e+01   9.0437113e+00   3.6330354e+01
   2.4533547e+01   2.3438176e+01   9.0530870e+00   3.6560405e+01
   2.4635861e+01   2.3599783e+01   9.0618219e+00   3.6790487e+01
   2.4738175e+01   2.3761428e+01   9.0699159e+00   3.7020599e+01
   2.4840489e+01   2.3923109e+01   9.0773687e+00   3.7250738e+01
   2.4880119e+01   2.3985742e+01   9.0800832e+00   3.7339886e+01
   2.4919748e+01   2.4048380e+01   9.0827014e+00   3.7429037e+01
   2.4959378e+01   2.4111022e+01   9.0852233e+00   3.7518191e+01
   2.4999008e+01   2.4173669e+01   9.0876491e+00   3.7607349e+01
   2.5038637e+01   2.4236319e+01   9.0899785e+00   3.7696509e+01
   2.5078267e+01   2.4298974e+01   9.0922117e+00   3.7785667e+01
   2.5117897e+01   2.4361633e+01   9.0943486e+00   3.7874816e+01
   2.5157526e+01   2.4424295e+01   9.0963893e+00   3.7963950e+01
   2.5342804e+01   2.4717298e+01   9.1046535e+00   3.8380303e+01
   2.5528082e+01   2.5010361e+01   9.1108177e+00   3.8795611e+01
   2.5713360e+01   2.5303465e+01   9.1148883e+00   3.9209300e+01
   2.5898637e+01   2.5596594e+01   9.1168746e+00   3.9620812e+01
   2.6106765e+01   2.5925883e+01   9.1166356e+00   4.0079817e+01
   2.6314893e+01   2.6255157e+01   9.1138036e+00   4.0534670e+01
   2.6523021e+01   2.6584395e+01   9.1084043e+00   4.0984673e+01
   2.6731149e+01   2.6913574e+01   9.1004675e+00   4.1429159e+01
   2.6938476e+01   2.7241407e+01   9.0900717e+00   4.1865819e+01
   2.7145803e+01   2.7569140e+01   9.0772281e+00   4.2295778e+01
   2.7353129e+01   2.7896754e+01   9.0619767e+00   4.2718470e+01
   2.7560456e+01   2.8224231e+01   9.0443610e+00   4.3133362e+01
   2.7767000e+01   2.8550319e+01   9.0245069e+00   4.3538431e+01
   2.7973543e+01   2.8876240e+01   9.0024010e+00   4.3934794e+01
   2.8180087e+01   2.9201979e+01   8.9780945e+00   4.4322015e+01
   2.8386630e+01   2.9527523e+01   8.9516408e+00   4.4699690e+01
   2.8592530e+01   2.9851849e+01   8.9231881e+00   4.5066315e+01
   2.8798430e+01   3.0175960e+01   8.8927143e+00   4.5422743e+01
   2.9004330e+01   3.0499848e+01   8.8602786e+00   4.5768666e+01
   2.9210229e+01   3.0823506e+01   8.8259415e+00   4.6103805e+01
   2.9415630e+01   3.1146144e+01   8.7898550e+00   4.6427141e+01
   2.9621031e+01   3.1468542e+01   8.7520010e+00   4.6739284e+01
   2.9826431e+01   3.1790697e+01   8.7124433e+00   4.7040048e+01
   3.0031832e+01   3.2112608e+01   8.6712468e+00   4.7329280e+01
   3.0236888e+01   3.2433733e+01   8.6285499e+00   4.7606399e+01
   3.0441944e+01   3.2754613e+01   8.5843505e+00   4.7871806e+01
   3.0647001e+01   3.3075249e+01   8.5387146e+00   4.8125437e+01
   3.0852057e+01   3.3395644e+01   8.4917083e+00   4.8367259e+01
   3.1056933e+01   3.3715521e+01   8.4434407e+00   4.8597071e+01
   3.1261809e+01   3.4035163e+01   8.3939371e+00   4.8815116e+01
   3.1466686e+01   3.4354577e+01   8.3432630e+00   4.9021453e+01
   3.1671562e+01   3.4673768e+01   8.2914832e+00   4.9216165e+01
   3.1876430e+01   3.4992729e+01   8.2386646e+00   4.9399362e+01
   3.2081297e+01   3.5311480e+01   8.1848684e+00   4.9571198e+01
   3.2286165e+01   3.5630028e+01   8.1301572e+00   4.9731849e+01
   3.2491032e+01   3.5948382e+01   8.0745924e+00   4.9881520e+01
   3.2696064e+01   3.6266804e+01   8.0181888e+00   5.0020552e+01
   3.2901096e+01   3.6585048e+01   7.9610494e+00   5.0149089e+01
   3.3106127e+01   3.6903122e+01   7.9032314e+00   5.0267424e+01
   3.3311159e+01   3.7221035e+01   7.8447901e+00   5.0375884e+01
   3.3516523e+01   3.7539313e+01   7.7856829e+00   5.0474976e+01
   3.3721888e+01   3.7857446e+01   7.7260559e+00   5.0564903e+01
   3.3927253e+01   3.8175444e+01   7.6659585e+00   5.0646081e+01
   3.4132617e+01   3.8493316e+01   7.6054377e+00   5.0718958e+01
   3.4338477e+01   3.8811835e+01   7.5443906e+00   5.0784158e+01
   3.4544337e+01   3.9130242e+01   7.4830049e+00   5.0842004e+01
   3.4750197e+01   3.9448546e+01   7.4213195e+00   5.0893037e+01
   3.4956057e+01   3.9766753e+01   7.3593705e+00   5.0937827e+01
   3.5114894e+01   4.0012213e+01   7.3114127e+00   5.0968483e+01
   3.5273731e+01   4.0257622e+01   7.2633316e+00   5.0995853e+01
   3.5432569e+01   4.0502983e+01   7.2151411e+00   5.1019943e+01
   3.5591406e+01   4.0748298e+01   7.1668554e+00   5.1040755e+01
   3.5750243e+01   4.0993571e+01   7.1184881e+00   5.1058291e+01
   3.5909080e+01   4.1238805e+01   7.0700534e+00   5.1072552e+01
   3.6067917e+01   4.1484003e+01   7.0215650e+00   5.1083542e+01
   3.6226754e+01   4.1729166e+01   6.9730370e+00   5.1091263e+01
   3.6585868e+01   4.2283348e+01   6.8632462e+00   5.1096685e+01
   3.6944983e+01   4.2837408e+01   6.7534833e+00   5.1085455e+01
   3.7304097e+01   4.3391379e+01   6.6439080e+00   5.1057620e+01
   3.7663211e+01   4.3945297e+01   6.5346795e+00   5.1013237e+01
   3.8022784e+01   4.4499903e+01   6.4258179e+00   5.0952279e+01
   3.8382358e+01   4.5054523e+01   6.3176218e+00   5.0874863e+01
   3.8741931e+01   4.5609189e+01   6.2102493e+00   5.0781068e+01
   3.9101504e+01   4.6163934e+01   6.1038580e+00   5.0670980e+01
   3.9462037e+01   4.6720269e+01   5.9983255e+00   5.0544332e+01
   3.9822570e+01   4.7276745e+01   5.8940943e+00   5.0401498e+01
   4.0183103e+01   4.7833392e+01   5.7913208e+00   5.0242586e+01
   4.0543636e+01   4.8390236e+01   5.6901608e+00   5.0067712e+01
   4.0905399e+01   4.8949207e+01   5.5904329e+00   4.9876322e+01
   4.1267162e+01   4.9508428e+01   5.4926405e+00   4.9669118e+01
   4.1628925e+01   5.0067923e+01   5.3969378e+00   4.9446239e+01
   4.1990689e+01   5.0627713e+01   5.3034778e+00   4.9207832e+01
   4.2353974e+01   5.1190174e+01   5.2120349e+00   4.8952954e+01
   4.2717259e+01   5.1752969e+01   5.1231593e+00   4.8682737e+01
   4.3080544e+01   5.2316113e+01   5.0370024e+00   4.8397355e+01
   4.3443829e+01   5.2879619e+01   4.9537138e+00   4.8096988e+01
   4.3808965e+01   5.3446370e+01   4.8730406e+00   4.7780177e+01
   4.4174102e+01   5.4013503e+01   4.7955636e+00   4.7448615e+01
   4.4539238e+01   5.4581024e+01   4.7214298e+00   4.7102507e+01
   4.4904375e+01   5.5148933e+01   4.6507845e+00   4.6742067e+01
   4.5271749e+01   5.5720713e+01   4.5833717e+00   4.6365178e+01
   4.5639124e+01   5.6292881e+01   4.5197791e+00   4.5974237e+01
   4.6006498e+01   5.6865430e+01   4.4601485e+00   4.5569488e+01
   4.6373873e+01   5.7438348e+01   4.4046189e+00   4.5151178e+01
   4.6743943e+01   5.8015831e+01   4.3529670e+00   4.4716350e+01
   4.7114014e+01   5.8593657e+01   4.3057528e+00   4.4268295e+01
   4.7484084e+01   5.9171807e+01   4.2631108e+00   4.3807292e+01
   4.7854154e+01   5.9750256e+01   4.2251725e+00   4.3333629e+01
   4.7897253e+01   5.9817640e+01   4.2210660e+00   4.3277656e+01
   4.7940351e+01   5.9885028e+01   4.2170252e+00   4.3221517e+01
   4.7983449e+01   5.9952419e+01   4.2130504e+00   4.3165211e+01
   4.8026547e+01   6.0019814e+01   4.2091413e+00   4.3108739e+01
   4.8069645e+01   6.0087210e+01   4.2052967e+00   4.3052100e+01
   4.8112743e+01   6.0154604e+01   4.2015131e+00   4.2995296e+01
   4.8155841e+01   6.0221994e+01   4.1977874e+00   4.2938327e+01
   4.8198939e+01   6.0289375e+01   4.1941165e+00   4.2881192e+01
   4.8414430e+01   6.0626055e+01   4.1764726e+00   4.2593048e+01
   4.8629921e+01   6.0962081e+01   4.1597308e+00   4.2300812e+01
   4.8845411e+01   6.1297095e+01   4.1435127e+00   4.2004512e+01
   4.9060902e+01   6.1630759e+01   4.1274499e+00   4.1704182e+01
   4.9141888e+01   6.1755743e+01   4.1213795e+00   4.1590276e+01
   4.9222874e+01   6.1880474e+01   4.1152617e+00   4.1475808e+01
   4.9303859e+01   6.2004938e+01   4.1090779e+00   4.1360777e+01
   4.9384845e+01   6.2129119e+01   4.1028098e+00   4.1245187e+01
   4.9465831e+01   6.2253002e+01   4.0964396e+00   4.1129039e+01
   4.9546817e+01   6.2376572e+01   4.0899492e+00   4.1012335e+01
   4.9627803e+01   6.2499816e+01   4.0833212e+00   4.0895077e+01
   4.9708788e+01   6.2622719e+01   4.0765380e+00   4.0777265e+01
   4.9757597e+01   6.2696621e+01   4.0723677e+00   4.0705996e+01
   4.9806406e+01   6.2770392e+01   4.0681311e+00   4.0634527e+01
   4.9855216e+01   6.2844028e+01   4.0638245e+00   4.0562858e+01
   4.9904025e+01   6.2917527e+01   4.0594442e+00   4.0490991e+01
   4.9952834e+01   6.2990887e+01   4.0549868e+00   4.0418925e+01
   5.0001643e+01   6.3064104e+01   4.0504482e+00   4.0346661e+01
   5.0050452e+01   6.3137174e+01   4.0458263e+00   4.0274199e+01
   5.0099261e+01   6.3210091e+01   4.0411216e+00   4.0201540e+01
   5.0144828e+01   6.3278019e+01   4.0366565e+00   4.0133527e+01
   5.0190396e+01   6.3345797e+01   4.0321225e+00   4.0065342e+01
   5.0235964e+01   6.3413418e+01   4.0275210e+00   3.9996985e+01
   5.0281531e+01   6.3480877e+01   4.0228532e+00   3.9928455e+01
   5.0509369e+01   6.3815481e+01   3.9985656e+00   3.9583221e+01
   5.0737207e+01   6.4144995e+01   3.9728045e+00   3.9233685e+01
   5.0965046e+01   6.4468628e+01   3.9457000e+00   3.8879860e+01
   5.1192884e+01   6.4785630e+01   3.9173625e+00   3.8521765e+01
   5.1441932e+01   6.5123729e+01   3.8850829e+00   3.8125478e+01
   5.1690981e+01   6.5452209e+01   3.8515313e+00   3.7724161e+01
   5.1940030e+01   6.5770277e+01   3.8167761e+00   3.7317862e+01
   5.2189079e+01   6.6077207e+01   3.7808623e+00   3.6906640e+01
   5.2433836e+01   6.6367353e+01   3.7444600e+00   3.6497771e+01
   5.2678594e+01   6.6645536e+01   3.7069616e+00   3.6084279e+01
   5.2923351e+01   6.6911251e+01   3.6683514e+00   3.5666241e+01
   5.3168108e+01   6.7164054e+01   3.6285974e+00   3.5243739e+01
   5.3408496e+01   6.7399408e+01   3.5883943e+00   3.4824524e+01
   5.3648884e+01   6.7621638e+01   3.5469858e+00   3.4401182e+01
   5.3889272e+01   6.7830499e+01   3.5043053e+00   3.3973811e+01
   5.4129660e+01   6.8025804e+01   3.4602774e+00   3.3542514e+01
   5.4366385e+01   6.8204761e+01   3.4155232e+00   3.3114059e+01
   5.4603110e+01   6.8370381e+01   3.3692979e+00   3.2682013e+01
   5.4839835e+01   6.8522652e+01   3.3215144e+00   3.2246490e+01
   5.5076560e+01   6.8661614e+01   3.2720845e+00   3.1807612e+01
   5.5310389e+01   6.8785907e+01   3.2215562e+00   3.1370931e+01
   5.5544218e+01   6.8897457e+01   3.1692510e+00   3.0931223e+01
   5.5778046e+01   6.8996461e+01   3.1150895e+00   3.0488618e+01
   5.6011875e+01   6.9083168e+01   3.0589975e+00   3.0043251e+01
   5.6243600e+01   6.9157260e+01   3.0014393e+00   2.9599303e+01
   5.6475325e+01   6.9219915e+01   2.9418616e+00   2.9152917e+01
   5.6707050e+01   6.9271525e+01   2.8802181e+00   2.8704236e+01
   5.6938775e+01   6.9312530e+01   2.8164745e+00   2.8253405e+01
   5.7169297e+01   6.9343285e+01   2.7509571e+00   2.7802928e+01
   5.7399820e+01   6.9364559e+01   2.6833351e+00   2.7350621e+01
